Time - h(t),Amplitude - h(t),
0,5,
0.1,5.01,
0.2,5.02,
0.3,5.03,
0.4,5.039,
0.5,5.049,
0.6,5.059,
0.7,5.068,
0.8,5.077,
0.9,5.087,
1,5.096,
1.1,5.105,
1.2,5.114,
1.3,5.123,
1.4,5.132,
1.5,5.141,
1.6,5.15,
1.7,5.158,
1.8,5.167,
1.9,5.175,
2,5.184,
2.1,5.192,
2.2,5.2,
2.3,5.209,
2.4,5.217,
2.5,5.225,
2.6,5.233,
2.7,5.241,
2.8,5.249,
2.9,5.256,
3,5.264,
3.1,5.272,
3.2,5.279,
3.3,5.287,
3.4,5.294,
3.5,5.302,
3.6,5.309,
3.7,5.316,
3.8,5.323,
3.9,5.331,
4,5.338,
4.1,5.345,
4.2,5.352,
4.3,5.358,
4.4,5.365,
4.5,5.372,
4.6,5.379,
4.7,5.385,
4.8,5.392,
4.9,5.398,
5,5.405,
5.1,5.411,
5.2,5.418,
5.3,5.424,
5.4,5.43,
5.5,5.436,
5.6,5.443,
5.7,5.449,
5.8,5.455,
5.9,5.461,
6,5.467,
6.1,5.473,
6.2,5.478,
6.3,5.484,
6.4,5.49,
6.5,5.496,
6.6,5.501,
6.7,5.507,
6.8,5.512,
6.9,5.518,
7,5.523,
7.1,5.529,
7.2,5.534,
7.3,5.539,
7.4,5.545,
7.5,5.55,
7.6,5.555,
7.7,5.56,
7.8,5.565,
7.9,5.57,
8,5.575,
8.1,5.58,
8.2,5.585,
8.3,5.59,
8.4,5.595,
8.5,5.6,
8.6,5.604,
8.7,5.609,
8.8,5.614,
8.9,5.618,
9,5.623,
9.1,5.628,
9.2,5.632,
9.3,5.637,
9.4,5.641,
9.5,5.645,
9.6,5.65,
9.7,5.654,
9.8,5.658,
9.9,5.663,
10,5.667,
10.1,5.671,
10.2,5.675,
10.3,5.679,
10.4,5.683,
10.5,5.687,
10.6,5.691,
10.7,5.695,
10.8,5.699,
10.9,5.703,
11,5.707,
11.1,5.711,
11.2,5.715,
11.3,5.718,
11.4,5.722,
11.5,5.726,
11.6,5.73,
11.7,5.733,
11.8,5.737,
11.9,5.74,
12,5.744,
12.1,5.748,
12.2,5.751,
12.3,5.754,
12.4,5.758,
12.5,5.761,
12.6,5.765,
12.7,5.768,
12.8,5.771,
12.9,5.775,
13,5.778,
13.1,5.781,
13.2,5.784,
13.3,5.788,
13.4,5.791,
13.5,5.794,
13.6,5.797,
13.7,5.8,
13.8,5.803,
13.9,5.806,
14,5.809,
14.1,5.812,
14.2,5.815,
14.3,5.818,
14.4,5.821,
14.5,5.824,
14.6,5.827,
14.7,5.83,
14.8,5.832,
14.9,5.835,
15,5.838,
15.1,5.841,
15.2,5.843,
15.3,5.846,
15.4,5.849,
15.5,5.851,
15.6,5.854,
15.7,5.857,
15.8,5.859,
15.9,5.862,
16,5.864,
16.1,5.867,
16.2,5.869,
16.3,5.872,
16.4,5.874,
16.5,5.877,
16.6,5.879,
16.7,5.882,
16.8,5.884,
16.9,5.886,
17,5.889,
17.1,5.891,
17.2,5.893,
17.3,5.896,
17.4,5.898,
17.5,5.9,
17.6,5.902,
17.7,5.905,
17.8,5.907,
17.9,5.909,
18,5.911,
18.1,5.913,
18.2,5.915,
18.3,5.917,
18.4,5.919,
18.5,5.922,
18.6,5.924,
18.7,5.926,
18.8,5.928,
18.9,5.93,
19,5.932,
19.1,5.934,
19.2,5.936,
19.3,5.937,
19.4,5.939,
19.5,5.941,
19.6,5.943,
19.7,5.945,
19.8,5.947,
19.9,5.949,
20,5.951,
20.1,5.952,
20.2,5.954,
20.3,5.956,
20.4,5.958,
20.5,5.959,
20.6,5.961,
20.7,5.963,
20.8,5.965,
20.9,5.966,
21,5.968,
21.1,5.97,
21.2,5.971,
21.3,5.973,
21.4,5.975,
21.5,5.976,
21.6,5.978,
21.7,5.979,
21.8,5.981,
21.9,5.982,
22,5.984,
22.1,5.986,
22.2,5.987,
22.3,5.989,
22.4,5.99,
22.5,5.992,
22.6,5.993,
22.7,5.995,
22.8,5.996,
22.9,5.997,
23,5.999,
23.1,6,
23.2,6.002,
23.3,6.003,
23.4,6.004,
23.5,6.006,
23.6,6.007,
23.7,6.008,
23.8,6.01,
23.9,6.011,
24,6.012,
24.1,6.014,
24.2,6.015,
24.3,6.016,
24.4,6.018,
24.5,6.019,
24.6,6.02,
24.7,6.021,
24.8,6.023,
24.9,6.024,
25,6.025,
25.1,6.026,
25.2,6.027,
25.3,6.029,
25.4,6.03,
25.5,6.031,
25.6,6.032,
25.7,6.033,
25.8,6.034,
25.9,6.035,
26,6.036,
26.1,6.038,
26.2,6.039,
26.3,6.04,
26.4,6.041,
26.5,6.042,
26.6,6.043,
26.7,6.044,
26.8,6.045,
26.9,6.046,
27,6.047,
27.1,6.048,
27.2,6.049,
27.3,6.05,
27.4,6.051,
27.5,6.052,
27.6,6.053,
27.7,6.054,
27.8,6.055,
27.9,6.056,
28,6.057,
28.1,6.058,
28.2,6.059,
28.3,6.06,
28.4,6.061,
28.5,6.062,
28.6,6.062,
28.7,6.063,
28.8,6.064,
28.9,6.065,
29,6.066,
29.1,6.067,
29.2,6.068,
29.3,6.068,
29.4,6.069,
29.5,6.07,
29.6,6.071,
29.7,6.072,
29.8,6.073,
29.9,6.073,
30,6.074,
30.1,6.075,
30.2,6.076,
30.3,6.077,
30.4,6.077,
30.5,6.078,
30.6,6.079,
30.7,6.08,
30.8,6.08,
30.9,6.081,
31,6.082,
31.1,6.083,
31.2,6.083,
31.3,6.084,
31.4,6.085,
31.5,6.085,
31.6,6.086,
31.7,6.087,
31.8,6.088,
31.9,6.088,
32,6.089,
32.1,6.09,
32.2,6.09,
32.3,6.091,
32.4,6.092,
32.5,6.092,
32.6,6.093,
32.7,6.094,
32.8,6.094,
32.9,6.095,
33,6.095,
33.1,6.096,
33.2,6.097,
33.3,6.097,
33.4,6.098,
33.5,6.098,
33.6,6.099,
33.7,6.1,
33.8,6.1,
33.9,6.101,
34,6.101,
34.1,6.102,
34.2,6.103,
34.3,6.103,
34.4,6.104,
34.5,6.104,
34.6,6.105,
34.7,6.105,
34.8,6.106,
34.9,6.106,
35,6.107,
35.1,6.107,
35.2,6.108,
35.3,6.109,
35.4,6.109,
35.5,6.11,
35.6,6.11,
35.7,6.111,
35.8,6.111,
35.9,6.112,
36,6.112,
36.1,6.113,
36.2,6.113,
36.3,6.113,
36.4,6.114,
36.5,6.114,
36.6,6.115,
36.7,6.115,
36.8,6.116,
36.9,6.116,
37,6.117,
37.1,6.117,
37.2,6.118,
37.3,6.118,
37.4,6.118,
37.5,6.119,
37.6,6.119,
37.7,6.12,
37.8,6.12,
37.9,6.121,
38,6.121,
38.1,6.121,
38.2,6.122,
38.3,6.122,
38.4,6.123,
38.5,6.123,
38.6,6.123,
38.7,6.124,
38.8,6.124,
38.9,6.125,
39,6.125,
39.1,6.125,
39.2,6.126,
39.3,6.126,
39.4,6.126,
39.5,6.127,
39.6,6.127,
39.7,6.128,
39.8,6.128,
39.9,6.128,
40,6.129,
40.1,6.129,
40.2,6.129,
40.3,6.13,
40.4,6.13,
40.5,6.13,
40.6,6.131,
40.7,6.131,
40.8,6.131,
40.9,6.132,
41,6.132,
41.1,6.132,
41.2,6.133,
41.3,6.133,
41.4,6.133,
41.5,6.134,
41.6,6.134,
41.7,6.134,
41.8,6.135,
41.9,6.135,
42,6.135,
42.1,6.135,
42.2,6.136,
42.3,6.136,
42.4,6.136,
42.5,6.137,
42.6,6.137,
42.7,6.137,
42.8,6.137,
42.9,6.138,
43,6.138,
43.1,6.138,
43.2,6.139,
43.3,6.139,
43.4,6.139,
43.5,6.139,
43.6,6.14,
43.7,6.14,
43.8,6.14,
43.9,6.14,
44,6.141,
44.1,6.141,
44.2,6.141,
44.3,6.141,
44.4,6.142,
44.5,6.142,
44.6,6.142,
44.7,6.142,
44.8,6.143,
44.9,6.143,
45,6.143,
45.1,6.143,
45.2,6.142,
45.3,6.138,
45.4,6.132,
45.5,6.125,
45.6,6.117,
45.7,6.107,
45.8,6.095,
45.9,6.082,
46,6.068,
46.1,6.053,
46.2,6.037,
46.3,6.019,
46.4,6.001,
46.5,5.982,
46.6,5.962,
46.7,5.941,
46.8,5.92,
46.9,5.898,
47,5.875,
47.1,5.852,
47.2,5.828,
47.3,5.804,
47.4,5.779,
47.5,5.754,
47.6,5.729,
47.7,5.703,
47.8,5.677,
47.9,5.651,
48,5.624,
48.1,5.597,
48.2,5.57,
48.3,5.543,
48.4,5.515,
48.5,5.488,
48.6,5.46,
48.7,5.432,
48.8,5.405,
48.9,5.377,
49,5.349,
49.1,5.321,
49.2,5.293,
49.3,5.265,
49.4,5.237,
49.5,5.209,
49.6,5.181,
49.7,5.153,
49.8,5.125,
49.9,5.098,
50,5.07,
50.1,5.043,
50.2,5.015,
50.3,4.988,
50.4,4.96,
50.5,4.933,
50.6,4.906,
50.7,4.879,
50.8,4.853,
50.9,4.826,
51,4.8,
51.1,4.773,
51.2,4.747,
51.3,4.721,
51.4,4.695,
51.5,4.669,
51.6,4.644,
51.7,4.618,
51.8,4.593,
51.9,4.568,
52,4.543,
52.1,4.519,
52.2,4.494,
52.3,4.47,
52.4,4.446,
52.5,4.422,
52.6,4.398,
52.7,4.374,
52.8,4.351,
52.9,4.328,
53,4.305,
53.1,4.282,
53.2,4.259,
53.3,4.237,
53.4,4.214,
53.5,4.192,
53.6,4.17,
53.7,4.149,
53.8,4.127,
53.9,4.106,
54,4.085,
54.1,4.064,
54.2,4.043,
54.3,4.022,
54.4,4.002,
54.5,3.982,
54.6,3.962,
54.7,3.942,
54.8,3.922,
54.9,3.903,
55,3.883,
55.1,3.864,
55.2,3.845,
55.3,3.827,
55.4,3.808,
55.5,3.79,
55.6,3.772,
55.7,3.754,
55.8,3.736,
55.9,3.718,
56,3.701,
56.1,3.683,
56.2,3.666,
56.3,3.649,
56.4,3.633,
56.5,3.616,
56.6,3.6,
56.7,3.583,
56.8,3.567,
56.9,3.551,
57,3.535,
57.1,3.52,
57.2,3.504,
57.3,3.489,
57.4,3.474,
57.5,3.459,
57.6,3.444,
57.7,3.43,
57.8,3.415,
57.9,3.401,
58,3.387,
58.1,3.373,
58.2,3.359,
58.3,3.345,
58.4,3.331,
58.5,3.318,
58.6,3.305,
58.7,3.292,
58.8,3.279,
58.9,3.266,
59,3.253,
59.1,3.24,
59.2,3.228,
59.3,3.216,
59.4,3.204,
59.5,3.192,
59.6,3.18,
59.7,3.168,
59.8,3.156,
59.9,3.145,
60,3.133,
60.1,3.122,
60.2,3.113,
60.3,3.106,
60.4,3.101,
60.5,3.097,
60.6,3.096,
60.7,3.095,
60.8,3.097,
60.9,3.099,
61,3.103,
61.1,3.108,
61.2,3.115,
61.3,3.122,
61.4,3.13,
61.5,3.14,
61.6,3.15,
61.7,3.161,
61.8,3.172,
61.9,3.185,
62,3.198,
62.1,3.212,
62.2,3.226,
62.3,3.241,
62.4,3.256,
62.5,3.272,
62.6,3.288,
62.7,3.304,
62.8,3.321,
62.9,3.338,
63,3.356,
63.1,3.373,
63.2,3.391,
63.3,3.409,
63.4,3.428,
63.5,3.446,
63.6,3.465,
63.7,3.484,
63.8,3.502,
63.9,3.521,
64,3.54,
64.1,3.56,
64.2,3.579,
64.3,3.598,
64.4,3.617,
64.5,3.636,
64.6,3.656,
64.7,3.675,
64.8,3.694,
64.9,3.713,
65,3.733,
65.1,3.752,
65.2,3.771,
65.3,3.79,
65.4,3.809,
65.5,3.828,
65.6,3.847,
65.7,3.866,
65.8,3.884,
65.9,3.903,
66,3.921,
66.1,3.94,
66.2,3.958,
66.3,3.976,
66.4,3.995,
66.5,4.013,
66.6,4.031,
66.7,4.048,
66.8,4.066,
66.9,4.084,
67,4.101,
67.1,4.119,
67.2,4.136,
67.3,4.153,
67.4,4.17,
67.5,4.187,
67.6,4.204,
67.7,4.22,
67.8,4.237,
67.9,4.253,
68,4.27,
68.1,4.286,
68.2,4.302,
68.3,4.318,
68.4,4.334,
68.5,4.349,
68.6,4.365,
68.7,4.38,
68.8,4.396,
68.9,4.411,
69,4.426,
69.1,4.441,
69.2,4.455,
69.3,4.47,
69.4,4.485,
69.5,4.499,
69.6,4.513,
69.7,4.528,
69.8,4.542,
69.9,4.556,
70,4.569,
70.1,4.583,
70.2,4.597,
70.3,4.61,
70.4,4.624,
70.5,4.637,
70.6,4.65,
70.7,4.663,
70.8,4.676,
70.9,4.689,
71,4.701,
71.1,4.714,
71.2,4.727,
71.3,4.739,
71.4,4.751,
71.5,4.763,
71.6,4.775,
71.7,4.787,
71.8,4.799,
71.9,4.811,
72,4.822,
72.1,4.834,
72.2,4.845,
72.3,4.857,
72.4,4.868,
72.5,4.879,
72.6,4.89,
72.7,4.901,
72.8,4.912,
72.9,4.923,
73,4.933,
73.1,4.944,
73.2,4.954,
73.3,4.965,
73.4,4.975,
73.5,4.985,
73.6,4.995,
73.7,5.005,
73.8,5.015,
73.9,5.025,
74,5.035,
74.1,5.044,
74.2,5.054,
74.3,5.063,
74.4,5.073,
74.5,5.082,
74.6,5.091,
74.7,5.1,
74.8,5.109,
74.9,5.118,
75,5.127,
75.1,5.136,
75.2,5.145,
75.3,5.154,
75.4,5.162,
75.5,5.171,
75.6,5.179,
75.7,5.188,
75.8,5.196,
75.9,5.204,
76,5.212,
76.1,5.22,
76.2,5.228,
76.3,5.236,
76.4,5.244,
76.5,5.252,
76.6,5.26,
76.7,5.267,
76.8,5.275,
76.9,5.283,
77,5.29,
77.1,5.298,
77.2,5.305,
77.3,5.312,
77.4,5.319,
77.5,5.327,
77.6,5.334,
77.7,5.341,
77.8,5.348,
77.9,5.355,
78,5.361,
78.1,5.368,
78.2,5.375,
78.3,5.382,
78.4,5.388,
78.5,5.395,
78.6,5.401,
78.7,5.408,
78.8,5.414,
78.9,5.42,
79,5.427,
79.1,5.433,
79.2,5.439,
79.3,5.445,
79.4,5.451,
79.5,5.457,
79.6,5.463,
79.7,5.469,
79.8,5.475,
79.9,5.481,
80,5.487,
80.1,5.492,
80.2,5.498,
80.3,5.504,
80.4,5.509,
80.5,5.515,
80.6,5.52,
80.7,5.526,
80.8,5.531,
80.9,5.536,
81,5.542,
81.1,5.547,
81.2,5.552,
81.3,5.557,
81.4,5.562,
81.5,5.567,
81.6,5.572,
81.7,5.577,
81.8,5.582,
81.9,5.587,
82,5.592,
82.1,5.597,
82.2,5.602,
82.3,5.606,
82.4,5.611,
82.5,5.616,
82.6,5.62,
82.7,5.625,
82.8,5.629,
82.9,5.634,
83,5.638,
83.1,5.643,
83.2,5.647,
83.3,5.652,
83.4,5.656,
83.5,5.66,
83.6,5.664,
83.7,5.669,
83.8,5.673,
83.9,5.677,
84,5.681,
84.1,5.685,
84.2,5.689,
84.3,5.693,
84.4,5.697,
84.5,5.701,
84.6,5.705,
84.7,5.709,
84.8,5.712,
84.9,5.716,
85,5.72,
85.1,5.724,
85.2,5.727,
85.3,5.731,
85.4,5.735,
85.5,5.738,
85.6,5.742,
85.7,5.745,
85.8,5.749,
85.9,5.752,
86,5.756,
86.1,5.759,
86.2,5.763,
86.3,5.766,
86.4,5.769,
86.5,5.773,
86.6,5.776,
86.7,5.779,
86.8,5.783,
86.9,5.786,
87,5.789,
87.1,5.792,
87.2,5.795,
87.3,5.798,
87.4,5.801,
87.5,5.804,
87.6,5.807,
87.7,5.81,
87.8,5.813,
87.9,5.816,
88,5.819,
88.1,5.822,
88.2,5.825,
88.3,5.828,
88.4,5.831,
88.5,5.834,
88.6,5.836,
88.7,5.839,
88.8,5.842,
88.9,5.845,
89,5.847,
89.1,5.85,
89.2,5.853,
89.3,5.855,
89.4,5.858,
89.5,5.86,
89.6,5.863,
89.7,5.865,
89.8,5.868,
89.9,5.87,
90,5.873,
90.1,5.854,
90.2,5.837,
90.3,5.822,
90.4,5.809,
90.5,5.798,
90.6,5.788,
90.7,5.78,
90.8,5.774,
90.9,5.769,
91,5.766,
91.1,5.764,
91.2,5.763,
91.3,5.763,
91.4,5.765,
91.5,5.767,
91.6,5.77,
91.7,5.775,
91.8,5.78,
91.9,5.785,
92,5.792,
92.1,5.799,
92.2,5.807,
92.3,5.816,
92.4,5.825,
92.5,5.834,
92.6,5.844,
92.7,5.855,
92.8,5.866,
92.9,5.877,
93,5.889,
93.1,5.901,
93.2,5.913,
93.3,5.926,
93.4,5.939,
93.5,5.952,
93.6,5.965,
93.7,5.979,
93.8,5.992,
93.9,6.006,
94,6.02,
94.1,6.035,
94.2,6.049,
94.3,6.063,
94.4,6.078,
94.5,6.092,
94.6,6.107,
94.7,6.121,
94.8,6.136,
94.9,6.151,
95,6.166,
95.1,6.18,
95.2,6.195,
95.3,6.21,
95.4,6.225,
95.5,6.239,
95.6,6.254,
95.7,6.269,
95.8,6.283,
95.9,6.298,
96,6.313,
96.1,6.327,
96.2,6.342,
96.3,6.356,
96.4,6.371,
96.5,6.385,
96.6,6.399,
96.7,6.413,
96.8,6.427,
96.9,6.441,
97,6.455,
97.1,6.469,
97.2,6.483,
97.3,6.497,
97.4,6.511,
97.5,6.524,
97.6,6.538,
97.7,6.551,
97.8,6.564,
97.9,6.578,
98,6.591,
98.1,6.604,
98.2,6.617,
98.3,6.63,
98.4,6.642,
98.5,6.655,
98.6,6.668,
98.7,6.68,
98.8,6.692,
98.9,6.705,
99,6.717,
99.1,6.729,
99.2,6.741,
99.3,6.753,
99.4,6.765,
99.5,6.776,
99.6,6.788,
99.7,6.8,
99.8,6.811,
99.9,6.822,
100,6.834,
100.1,6.845,
100.2,6.856,
100.3,6.867,
100.4,6.878,
100.5,6.888,
100.6,6.899,
100.7,6.91,
100.8,6.92,
100.9,6.931,
101,6.941,
101.1,6.951,
101.2,6.961,
101.3,6.971,
101.4,6.981,
101.5,6.991,
101.6,7.001,
101.7,7.011,
101.8,7.021,
101.9,7.03,
102,7.04,
102.1,7.049,
102.2,7.058,
102.3,7.067,
102.4,7.077,
102.5,7.086,
102.6,7.095,
102.7,7.103,
102.8,7.112,
102.9,7.121,
103,7.13,
103.1,7.138,
103.2,7.147,
103.3,7.155,
103.4,7.164,
103.5,7.172,
103.6,7.18,
103.7,7.188,
103.8,7.196,
103.9,7.204,
104,7.212,
104.1,7.22,
104.2,7.228,
104.3,7.236,
104.4,7.243,
104.5,7.251,
104.6,7.258,
104.7,7.266,
104.8,7.273,
104.9,7.28,
105,7.288,
105.1,7.295,
105.2,7.302,
105.3,7.309,
105.4,7.316,
105.5,7.323,
105.6,7.33,
105.7,7.336,
105.8,7.343,
105.9,7.35,
106,7.356,
106.1,7.363,
106.2,7.369,
106.3,7.376,
106.4,7.382,
106.5,7.389,
106.6,7.395,
106.7,7.401,
106.8,7.407,
106.9,7.413,
107,7.419,
107.1,7.425,
107.2,7.431,
107.3,7.437,
107.4,7.443,
107.5,7.449,
107.6,7.455,
107.7,7.46,
107.8,7.466,
107.9,7.471,
108,7.477,
108.1,7.482,
108.2,7.488,
108.3,7.493,
108.4,7.498,
108.5,7.504,
108.6,7.509,
108.7,7.514,
108.8,7.519,
108.9,7.524,
109,7.529,
109.1,7.534,
109.2,7.539,
109.3,7.544,
109.4,7.549,
109.5,7.554,
109.6,7.559,
109.7,7.564,
109.8,7.568,
109.9,7.573,
110,7.577,
110.1,7.582,
110.2,7.587,
110.3,7.591,
110.4,7.596,
110.5,7.6,
110.6,7.604,
110.7,7.609,
110.8,7.613,
110.9,7.617,
111,7.621,
111.1,7.626,
111.2,7.63,
111.3,7.634,
111.4,7.638,
111.5,7.642,
111.6,7.646,
111.7,7.65,
111.8,7.654,
111.9,7.658,
112,7.662,
112.1,7.665,
112.2,7.669,
112.3,7.673,
112.4,7.677,
112.5,7.68,
112.6,7.684,
112.7,7.688,
112.8,7.691,
112.9,7.695,
113,7.698,
113.1,7.702,
113.2,7.705,
113.3,7.709,
113.4,7.712,
113.5,7.715,
113.6,7.719,
113.7,7.722,
113.8,7.725,
113.9,7.729,
114,7.732,
114.1,7.735,
114.2,7.738,
114.3,7.741,
114.4,7.745,
114.5,7.748,
114.6,7.751,
114.7,7.754,
114.8,7.757,
114.9,7.76,
115,7.763,
115.1,7.766,
115.2,7.769,
115.3,7.771,
115.4,7.774,
115.5,7.777,
115.6,7.78,
115.7,7.783,
115.8,7.785,
115.9,7.788,
116,7.791,
116.1,7.794,
116.2,7.796,
116.3,7.799,
116.4,7.801,
116.5,7.804,
116.6,7.807,
116.7,7.809,
116.8,7.812,
116.9,7.814,
117,7.817,
117.1,7.819,
117.2,7.821,
117.3,7.824,
117.4,7.826,
117.5,7.829,
117.6,7.831,
117.7,7.833,
117.8,7.836,
117.9,7.838,
118,7.84,
118.1,7.842,
118.2,7.845,
118.3,7.847,
118.4,7.849,
118.5,7.851,
118.6,7.853,
118.7,7.855,
118.8,7.858,
118.9,7.86,
119,7.862,
119.1,7.864,
119.2,7.866,
119.3,7.868,
119.4,7.87,
119.5,7.872,
119.6,7.874,
119.7,7.876,
119.8,7.878,
119.9,7.88,
120,7.882,
120.1,7.883,
120.2,7.883,
120.3,7.881,
120.4,7.877,
120.5,7.872,
120.6,7.865,
120.7,7.856,
120.8,7.846,
120.9,7.835,
121,7.823,
121.1,7.809,
121.2,7.794,
121.3,7.778,
121.4,7.762,
121.5,7.744,
121.6,7.726,
121.7,7.707,
121.8,7.687,
121.9,7.666,
122,7.645,
122.1,7.623,
122.2,7.601,
122.3,7.579,
122.4,7.555,
122.5,7.532,
122.6,7.508,
122.7,7.484,
122.8,7.459,
122.9,7.434,
123,7.409,
123.1,7.384,
123.2,7.358,
123.3,7.333,
123.4,7.307,
123.5,7.281,
123.6,7.255,
123.7,7.228,
123.8,7.202,
123.9,7.176,
124,7.149,
124.1,7.123,
124.2,7.097,
124.3,7.07,
124.4,7.044,
124.5,7.017,
124.6,6.991,
124.7,6.965,
124.8,6.939,
124.9,6.912,
125,6.886,
125.1,6.86,
125.2,6.834,
125.3,6.808,
125.4,6.783,
125.5,6.757,
125.6,6.732,
125.7,6.706,
125.8,6.681,
125.9,6.656,
126,6.631,
126.1,6.606,
126.2,6.581,
126.3,6.557,
126.4,6.532,
126.5,6.508,
126.6,6.484,
126.7,6.46,
126.8,6.436,
126.9,6.413,
127,6.389,
127.1,6.366,
127.2,6.343,
127.3,6.32,
127.4,6.297,
127.5,6.275,
127.6,6.252,
127.7,6.23,
127.8,6.208,
127.9,6.186,
128,6.165,
128.1,6.143,
128.2,6.122,
128.3,6.101,
128.4,6.08,
128.5,6.059,
128.6,6.038,
128.7,6.018,
128.8,5.998,
128.9,5.978,
129,5.958,
129.1,5.938,
129.2,5.919,
129.3,5.899,
129.4,5.88,
129.5,5.861,
129.6,5.842,
129.7,5.824,
129.8,5.805,
129.9,5.787,
130,5.769,
130.1,5.751,
130.2,5.733,
130.3,5.716,
130.4,5.698,
130.5,5.681,
130.6,5.664,
130.7,5.647,
130.8,5.63,
130.9,5.614,
131,5.597,
131.1,5.581,
131.2,5.565,
131.3,5.549,
131.4,5.533,
131.5,5.518,
131.6,5.502,
131.7,5.487,
131.8,5.472,
131.9,5.457,
132,5.442,
132.1,5.427,
132.2,5.413,
132.3,5.398,
132.4,5.384,
132.5,5.37,
132.6,5.356,
132.7,5.342,
132.8,5.329,
132.9,5.315,
133,5.302,
133.1,5.289,
133.2,5.275,
133.3,5.262,
133.4,5.25,
133.5,5.237,
133.6,5.224,
133.7,5.212,
133.8,5.2,
133.9,5.188,
134,5.176,
134.1,5.164,
134.2,5.152,
134.3,5.14,
134.4,5.129,
134.5,5.117,
134.6,5.106,
134.7,5.095,
134.8,5.084,
134.9,5.073,
135,5.062,
135.1,5.052,
135.2,5.039,
135.3,5.025,
135.4,5.009,
135.5,4.991,
135.6,4.972,
135.7,4.952,
135.8,4.93,
135.9,4.908,
136,4.884,
136.1,4.859,
136.2,4.833,
136.3,4.807,
136.4,4.78,
136.5,4.752,
136.6,4.723,
136.7,4.694,
136.8,4.664,
136.9,4.633,
137,4.603,
137.1,4.571,
137.2,4.54,
137.3,4.508,
137.4,4.476,
137.5,4.443,
137.6,4.411,
137.7,4.378,
137.8,4.345,
137.9,4.312,
138,4.279,
138.1,4.246,
138.2,4.213,
138.3,4.179,
138.4,4.146,
138.5,4.113,
138.6,4.08,
138.7,4.047,
138.8,4.014,
138.9,3.981,
139,3.948,
139.1,3.916,
139.2,3.883,
139.3,3.851,
139.4,3.819,
139.5,3.787,
139.6,3.755,
139.7,3.723,
139.8,3.692,
139.9,3.661,
140,3.63,
140.1,3.599,
140.2,3.569,
140.3,3.539,
140.4,3.509,
140.5,3.479,
140.6,3.45,
140.7,3.421,
140.8,3.392,
140.9,3.363,
141,3.335,
141.1,3.307,
141.2,3.279,
141.3,3.252,
141.4,3.225,
141.5,3.198,
141.6,3.171,
141.7,3.145,
141.8,3.119,
141.9,3.093,
142,3.068,
142.1,3.043,
142.2,3.018,
142.3,2.994,
142.4,2.97,
142.5,2.946,
142.6,2.922,
142.7,2.899,
142.8,2.876,
142.9,2.853,
143,2.831,
143.1,2.809,
143.2,2.787,
143.3,2.765,
143.4,2.744,
143.5,2.723,
143.6,2.702,
143.7,2.682,
143.8,2.662,
143.9,2.642,
144,2.623,
144.1,2.603,
144.2,2.584,
144.3,2.566,
144.4,2.547,
144.5,2.529,
144.6,2.511,
144.7,2.493,
144.8,2.476,
144.9,2.459,
145,2.442,
145.1,2.425,
145.2,2.409,
145.3,2.393,
145.4,2.377,
145.5,2.361,
145.6,2.346,
145.7,2.331,
145.8,2.316,
145.9,2.301,
146,2.286,
146.1,2.272,
146.2,2.258,
146.3,2.244,
146.4,2.231,
146.5,2.217,
146.6,2.204,
146.7,2.191,
146.8,2.179,
146.9,2.166,
147,2.154,
147.1,2.142,
147.2,2.13,
147.3,2.118,
147.4,2.106,
147.5,2.095,
147.6,2.084,
147.7,2.073,
147.8,2.062,
147.9,2.052,
148,2.041,
148.1,2.031,
148.2,2.021,
148.3,2.011,
148.4,2.001,
148.5,1.992,
148.6,1.982,
148.7,1.973,
148.8,1.964,
148.9,1.955,
149,1.946,
149.1,1.938,
149.2,1.929,
149.3,1.921,
149.4,1.913,
149.5,1.905,
149.6,1.897,
149.7,1.889,
149.8,1.882,
149.9,1.874,
150,1.867,
150.1,1.86,
150.2,1.853,
150.3,1.846,
150.4,1.839,
150.5,1.832,
150.6,1.826,
150.7,1.819,
150.8,1.813,
150.9,1.806,
151,1.8,
151.1,1.794,
151.2,1.788,
151.3,1.783,
151.4,1.777,
151.5,1.771,
151.6,1.766,
151.7,1.761,
151.8,1.755,
151.9,1.75,
152,1.745,
152.1,1.74,
152.2,1.735,
152.3,1.73,
152.4,1.726,
152.5,1.721,
152.6,1.717,
152.7,1.712,
152.8,1.708,
152.9,1.703,
153,1.699,
153.1,1.695,
153.2,1.691,
153.3,1.687,
153.4,1.683,
153.5,1.679,
153.6,1.676,
153.7,1.672,
153.8,1.668,
153.9,1.665,
154,1.661,
154.1,1.658,
154.2,1.655,
154.3,1.651,
154.4,1.648,
154.5,1.645,
154.6,1.642,
154.7,1.639,
154.8,1.636,
154.9,1.633,
155,1.63,
155.1,1.627,
155.2,1.624,
155.3,1.622,
155.4,1.619,
155.5,1.616,
155.6,1.614,
155.7,1.611,
155.8,1.609,
155.9,1.607,
156,1.604,
156.1,1.602,
156.2,1.6,
156.3,1.597,
156.4,1.595,
156.5,1.593,
156.6,1.591,
156.7,1.589,
156.8,1.587,
156.9,1.585,
157,1.583,
157.1,1.581,
157.2,1.579,
157.3,1.577,
157.4,1.576,
157.5,1.574,
157.6,1.572,
157.7,1.57,
157.8,1.569,
157.9,1.567,
158,1.566,
158.1,1.564,
158.2,1.563,
158.3,1.561,
158.4,1.56,
158.5,1.558,
158.6,1.557,
158.7,1.555,
158.8,1.554,
158.9,1.553,
159,1.551,
159.1,1.55,
159.2,1.549,
159.3,1.548,
159.4,1.546,
159.5,1.545,
159.6,1.544,
159.7,1.543,
159.8,1.542,
159.9,1.541,
160,1.54,
160.1,1.539,
160.2,1.538,
160.3,1.537,
160.4,1.536,
160.5,1.535,
160.6,1.534,
160.7,1.533,
160.8,1.532,
160.9,1.531,
161,1.53,
161.1,1.529,
161.2,1.528,
161.3,1.528,
161.4,1.527,
161.5,1.526,
161.6,1.525,
161.7,1.524,
161.8,1.524,
161.9,1.523,
162,1.522,
162.1,1.522,
162.2,1.521,
162.3,1.52,
162.4,1.52,
162.5,1.519,
162.6,1.518,
162.7,1.518,
162.8,1.517,
162.9,1.516,
163,1.516,
163.1,1.515,
163.2,1.515,
163.3,1.514,
163.4,1.514,
163.5,1.513,
163.6,1.513,
163.7,1.512,
163.8,1.512,
163.9,1.511,
164,1.511,
164.1,1.51,
164.2,1.51,
164.3,1.509,
164.4,1.509,
164.5,1.508,
164.6,1.508,
164.7,1.508,
164.8,1.507,
164.9,1.507,
165,1.506,
165.1,1.506,
165.2,1.506,
165.3,1.505,
165.4,1.505,
165.5,1.505,
165.6,1.504,
165.7,1.504,
165.8,1.504,
